"Time (s)","Acceleration x (m/s^2)","Acceleration y (m/s^2)","Acceleration z (m/s^2)","Absolute acceleration (m/s^2)"
5.890833272E-4,-1.953587494E0,5.944438477E0,8.053552551E0,1.019865489E1
1.060108334E-2,-2.029479675E0,5.931415558E0,8.126001892E0,1.026315668E1
2.061308332E-2,-2.089504852E0,5.784720612E0,8.222551117E0,1.026836744E1
3.062608335E-2,-2.067350922E0,5.622757416E0,8.245603180E0,1.019212012E1
4.063808333E-2,-1.921404419E0,5.503006439E0,8.204588470E0,1.006430061E1
5.065337499E-2,-1.795216827E0,5.433999939E0,8.203241272E0,1.000221606E1
6.066637501E-2,-1.676513672E0,5.428012390E0,8.263416138E0,1.002786432E1
7.067837499E-2,-1.567091217E0,5.431904297E0,8.358318787E0,1.009073100E1
8.069037501E-2,-1.436712341E0,5.453160095E0,8.375083923E0,1.009668897E1
9.070337500E-2,-1.292113037E0,5.551655273E0,8.322842560E0,1.008762314E1
1.007153750E-1,-1.207538910E0,5.670957184E0,8.171058197E0,1.001918648E1
1.107283750E-1,-1.116378479E0,5.717510376E0,8.034242706E0,9.923975094E0
1.207403750E-1,-1.066232758E0,5.712271271E0,7.926466827E0,9.828314796E0
1.307523750E-1,-1.021924896E0,5.659580841E0,7.861501923E0,9.740554310E0
1.407653750E-1,-9.843530273E-1,5.550906830E0,7.743098145E0,9.577947922E0
1.507773750E-1,-9.156459045E-1,5.422922974E0,7.614515533E0,9.392941382E0
1.607893750E-1,-8.547225952E-1,5.324278107E0,7.480394440E0,9.221430965E0
1.708023750E-1,-8.072712708E-1,5.264552307E0,7.422913971E0,9.136019359E0
1.808143750E-1,-8.178991699E-1,5.203329620E0,7.398814087E0,9.082183002E0
1.908263750E-1,-8.460406494E-1,5.164260864E0,7.371121674E0,9.039845672E0
2.008393750E-1,-8.867559814E-1,5.159770203E0,7.328310699E0,9.006314586E0
2.108513750E-1,-9.196875000E-1,5.242697754E0,7.331454163E0,9.059907559E0
2.208633750E-1,-9.979747009E-1,5.360353088E0,7.430847473E0,9.216660616E0
2.308763750E-1,-1.117426300E0,5.466781769E0,7.577692108E0,9.410407118E0
2.408883750E-1,-1.223555603E0,5.559439087E0,7.701035614E0,9.576554746E0
2.509003750E-1,-1.326092377E0,5.680836639E0,7.893535309E0,9.815208892E0
2.609133750E-1,-1.483115845E0,5.775739288E0,8.070167999E0,1.003426173E1
2.709253750E-1,-1.624421997E0,5.849236450E0,8.202343140E0,1.020444741E1
2.809383750E-1,-1.681453400E0,5.903872833E0,8.297844543E0,1.032168707E1
2.909503750E-1,-1.638642426E0,5.836063843E0,8.352031860E0,1.031994314E1
3.009623750E-1,-1.701362000E0,5.629942474E0,8.296647034E0,1.016981991E1
3.109753750E-1,-1.660646667E0,5.495971069E0,8.275091858E0,1.007177197E1
3.209873750E-1,-1.218466187E0,5.158572693E0,8.470585327E0,9.992314440E0
3.309993750E-1,-9.292675781E-1,4.973557434E0,8.349038086E0,9.762491933E0
3.410123750E-1,-5.548960876E-1,4.783602448E0,8.302185516E0,9.597762572E0
3.510243750E-1,-2.047741699E-1,4.612657928E0,8.272996216E0,9.474228835E0
3.610363750E-1,1.540296936E-1,4.374353485E0,7.813751221E0,8.956193483E0
3.710493750E-1,4.646337891E-1,4.149521027E0,7.010072479E0,8.159382665E0
3.810613750E-1,7.363188171E-1,3.948638763E0,6.209836578E0,7.395673317E0
3.910733750E-1,9.108558655E-1,3.730691986E0,5.221741333E0,6.481844155E0
4.010863750E-1,1.073268127E0,3.582350464E0,4.146676941E0,5.583911619E0
4.110983750E-1,1.216819611E0,3.498225403E0,3.059338074E0,4.803933845E0
4.211103750E-1,1.306034088E0,3.404520264E0,2.131118317E0,4.223523238E0
4.311233750E-1,1.273252258E0,3.226839752E0,1.351539459E0,3.722945744E0
4.411353750E-1,1.323847046E0,3.187920685E0,5.203179932E-1,3.490865238E0
4.511483750E-1,1.396296387E0,3.328777771E0,-2.386038208E-1,3.617642441E0
4.611603750E-1,1.389111328E0,3.466491394E0,-9.675878906E-1,3.857773865E0
4.711723750E-1,1.492097168E0,3.465593262E0,-1.317111053E0,3.996432427E0
4.811853750E-1,1.757495270E0,3.605252838E0,3.222798157E-1,4.023742279E0
4.911973750E-1,4.447251892E-1,2.877017212E0,1.547032928E0,3.296713426E0
5.012093750E-1,-1.446891174E0,1.713187408E0,3.795656891E0,4.408573057E0
5.112223750E-1,-2.894381104E0,4.647834778E-1,8.127199402E0,8.639724288E0
5.212343750E-1,-2.978506165E0,-4.330494690E-1,8.625962219E0,9.135986812E0
5.312463750E-1,-1.590891724E0,-7.173083496E-1,7.185507660E0,7.394388959E0
5.412593750E-1,-4.983137512E-1,-5.376818848E-1,5.856271820E0,5.901977468E0
5.512713750E-1,-4.677772522E-1,-2.812651062E-1,4.660258942E0,4.692114558E0
5.612833750E-1,-3.014730835E-1,-9.595046997E-2,3.884571991E0,3.897434036E0
5.712963750E-1,3.764671326E-1,-6.047424316E-2,3.316802673E0,3.338647123E0
5.813083750E-1,1.213077393E0,-1.556762695E-2,2.517464905E0,2.794535500E0
5.913213750E-1,2.687062225E0,4.233197021E-1,2.656226349E0,3.801978615E0
6.013333750E-1,4.064797211E0,-1.303788757E-1,4.240831146E0,5.875731769E0
6.113453750E-1,3.168012085E0,3.159928894E-1,4.615202637E0,5.606803675E0
6.213583750E-1,1.174906769E0,9.533674622E-1,4.609364777E0,4.851346110E0
6.313703750E-1,-1.586700439E-1,1.218017120E0,3.892355804E0,4.081565337E0
6.413823750E-1,-6.915618896E-2,-5.388793945E-3,3.807631989E0,3.808263775E0
6.513953750E-1,2.475851440E-1,-9.725276184E-1,3.920946350E0,4.047335995E0
6.614073750E-1,9.514215088E-1,-9.376501465E-1,4.611759796E0,4.801324724E0
6.714193750E-1,2.292482758E0,-3.427871704E-2,5.321583710E0,5.794471969E0
6.814323750E-1,4.226311340E0,5.613327026E-1,6.834936676E0,8.055629169E0
6.914443750E-1,6.234684906E0,5.897735596E-1,8.941955109E0,1.091685348E1
7.014563750E-1,6.566245422E0,-1.927990723E-1,1.135029694E1,1.311419044E1
7.114693750E-1,7.679480438E0,-4.852908325E-1,1.347752335E1,1.551945755E1
7.214813750E-1,8.212222595E0,2.830314331E0,1.345013031E1,1.601116125E1
7.314933750E-1,7.586673431E0,4.462220764E0,1.939172470E1,2.129572762E1
7.415063750E-1,6.222111053E0,2.906056824E0,2.348002304E1,2.446367336E1
7.515183750E-1,5.454656982E0,3.094365234E0,2.276989975E1,2.361772033E1
7.615313750E-1,6.418053589E0,5.341641998E0,2.101075790E1,2.260921270E1
7.715433750E-1,7.296726379E0,5.539231110E0,2.168645279E1,2.354203754E1
7.815553750E-1,6.532565460E0,3.688779144E0,2.094983459E1,2.225257452E1
7.915683750E-1,5.965095520E0,2.539169769E0,2.021621017E1,2.123028265E1
8.015803750E-1,5.952821045E0,1.023870850E0,1.985635849E1,2.075474313E1
8.115923750E-1,5.970184937E0,-7.231462097E-1,1.933095108E1,2.024479484E1
8.216053750E-1,6.456224213E0,-1.905986481E0,1.900492905E1,2.016191815E1
8.316173750E-1,7.394922180E0,-2.798580322E0,1.844988327E1,2.007274567E1
8.416293750E-1,8.592581635E0,-3.840413818E0,1.801204376E1,2.032276945E1
8.516423750E-1,1.023092468E1,-5.083279266E0,1.764620453E1,2.102141961E1
8.616543750E-1,1.203018311E1,-6.562802582E0,1.755923538E1,2.227380593E1
8.716663750E-1,1.323652451E1,-8.077652435E0,1.762464935E1,2.347514248E1
8.816793750E-1,1.340642120E1,-9.090296631E0,1.699281326E1,2.347597335E1
8.916913750E-1,1.292367508E1,-9.137897644E0,1.531884430E1,2.202701844E1
9.017043750E-1,1.289403671E1,-9.130263519E0,1.419273605E1,2.123797663E1
9.117163750E-1,1.291589127E1,-9.526639252E0,1.298938843E1,2.064706551E1
9.217283750E-1,1.236818024E1,-1.002285736E1,1.164099243E1,1.972161902E1
9.317413750E-1,1.208032883E1,-1.085512665E1,1.107771378E1,1.965919280E1
9.417533750E-1,1.226729004E1,-1.109223358E1,9.898016968E0,1.927420013E1
9.517653750E-1,1.254526199E1,-1.102547241E1,8.701405334E0,1.883239483E1
9.617783750E-1,1.309327240E1,-1.079375427E1,7.776329041E0,1.866574956E1
9.717903750E-1,1.342603043E1,-1.015593063E1,6.591243439E0,1.807887469E1
9.818023750E-1,1.346509918E1,-9.182355194E0,5.158572693E0,1.709489442E1
9.918153750E-1,1.282503021E1,-8.356672211E0,3.641477509E0,1.573453936E1
1.001827375E0,1.177271851E1,-7.358996887E0,2.448757782E0,1.409780660E1
1.011839375E0,1.066831512E1,-5.951024780E0,1.593885498E0,1.231942022E1
1.021852375E0,9.821226654E0,-4.687352600E0,1.212927704E0,1.094983840E1
1.031864375E0,9.065148926E0,-3.534300385E0,8.747808838E-1,9.769004343E0
1.041877375E0,8.429869995E0,-2.396666107E0,3.969744873E-1,8.772930258E0
1.051885958E0,7.951315155E0,-1.289568329E0,-9.385482788E-2,8.055756197E0
1.061897958E0,7.400909729E0,-2.052232361E-1,-5.276527405E-1,7.422533180E0
1.071910958E0,6.561754761E0,8.509803772E-1,-8.494834900E-1,6.671013067E0
1.081922958E0,5.649252319E0,1.849853210E0,-8.655001831E-1,6.007087417E0
1.091934958E0,4.783003693E0,2.626737671E0,-5.346881104E-1,5.482952352E0
1.101947958E0,3.948938141E0,3.119812317E0,-1.914518738E-1,5.036267979E0
1.111959958E0,3.046315155E0,3.287763062E0,-1.603166199E-1,4.484988672E0
1.121971958E0,2.292782135E0,3.189118195E0,-2.483335876E-1,3.935605970E0
1.131984958E0,1.941612396E0,3.100203094E0,-5.406756592E-1,3.697762579E0
1.141996958E0,1.808539124E0,3.083437958E0,-1.000669098E0,3.712107494E0
1.152008958E0,1.728006592E0,2.996768188E0,-1.210083618E0,3.664823150E0
1.162021958E0,1.745370483E0,2.806962891E0,-1.157243500E0,3.502080997E0
1.172033958E0,1.765877838E0,2.648143158E0,-9.514215088E-1,3.322076100E0
1.182046958E0,1.909579010E0,2.482288055E0,-6.845265198E-1,3.205748359E0
1.192058958E0,2.047292633E0,2.325863342E0,-3.396437073E-1,3.117114894E0
1.202070958E0,1.966610413E0,2.178719330E0,1.492396545E-1,2.938817263E0
1.212083958E0,1.813778229E0,2.091001740E0,4.806504822E-1,2.809466964E0
1.222095958E0,1.860181732E0,2.120939484E0,7.394622803E-2,2.822078740E0
1.232107958E0,1.896705780E0,2.082768860E0,-1.284329224E-1,2.819913821E0
1.242120958E0,1.837279358E0,1.821262665E0,-2.865042114E-1,2.602821123E0
1.252132958E0,1.717827759E0,1.571282501E0,-4.346960449E-1,2.368295074E0
1.262144958E0,1.550475769E0,1.503024445E0,-1.312770081E-1,2.163398078E0
1.272157958E0,1.557361450E0,1.259480896E0,1.324745178E-1,2.007290789E0
1.282169958E0,1.864073639E0,6.713539124E-1,-1.877096558E-1,1.990156155E0
1.292181958E0,2.809956665E0,-3.763174438E-1,-4.507127380E-1,2.870646835E0
1.302194958E0,4.597838745E0,-2.173031158E0,-5.819897461E-1,5.118681237E0
1.312206958E0,7.293433228E0,-4.960085449E0,-8.994795227E-1,8.865984397E0
1.322219958E0,1.064795746E1,-8.343649292E0,-1.408121796E0,1.360067236E1
1.332231958E0,1.307635757E1,-1.205009171E1,-2.098935242E0,1.790534464E1
1.342243958E0,1.406430313E1,-1.611324234E1,-1.619332581E0,2.144908947E1
1.352256958E0,1.388632324E1,-1.852053635E1,-1.748364258E-1,2.314888350E1
1.362268958E0,1.312291077E1,-1.742241989E1,1.741179199E0,2.188111530E1
1.372280958E0,1.306857376E1,-1.569351517E1,2.883753204E0,2.062498657E1
1.382293958E0,1.386431900E1,-1.570429276E1,3.604205017E0,2.125639777E1
1.392305958E0,1.492965363E1,-1.766925659E1,3.884721680E0,2.345609193E1
1.402317958E0,1.573348206E1,-1.994048355E1,2.679577789E0,2.554105477E1
1.412330958E0,1.692455521E1,-2.095851654E1,1.872905273E0,2.700384711E1
1.422342958E0,1.787283325E1,-2.100072876E1,1.787882080E0,2.763449473E1
1.432355958E0,1.786055878E1,-2.031665131E1,1.732646942E0,2.710660336E1
1.442367958E0,1.664463730E1,-1.830303864E1,8.863069153E-1,2.475541787E1
1.452379958E0,1.319311478E1,-1.437266190E1,-7.029382324E-1,1.952244374E1
1.462392958E0,1.054616913E1,-1.075184143E1,-1.802401886E0,1.516813865E1
1.472404958E0,9.011710052E0,-8.307125244E0,-2.056573334E0,1.242774082E1
1.482416958E0,7.953859863E0,-7.030430145E0,-2.204914856E0,1.084216234E1
1.492429958E0,7.363337860E0,-6.336024170E0,-3.125650177E0,1.020458896E1
1.502441958E0,6.840475159E0,-5.687872009E0,-4.088148651E0,9.790656147E0
1.512453958E0,6.089187469E0,-4.700824585E0,-4.858446808E0,9.098376844E0
1.522466958E0,5.271887054E0,-3.392694855E0,-5.300926666E0,8.209932705E0
1.532478958E0,4.659211121E0,-2.160756683E0,-5.194497986E0,7.304787953E0
1.542491958E0,4.099824371E0,-1.297651520E0,-5.007237396E0,6.600370117E0
1.552503958E0,3.588188324E0,-8.885522461E-1,-4.883145447E0,6.124518756E0
1.562515958E0,3.211571503E0,-8.222401428E-1,-4.719385986E0,5.767397546E0
1.572528958E0,2.951562195E0,-9.632469177E-1,-4.483177185E0,5.453296406E0
1.582540958E0,2.755619659E0,-1.204694824E0,-4.161795502E0,5.134712370E0
1.592552958E0,2.581831055E0,-1.411115570E0,-3.871998138E0,4.863071903E0
1.602565958E0,2.510429535E0,-1.533710632E0,-3.426075439E0,4.515807532E0
1.612577958E0,2.526595917E0,-1.597028961E0,-2.992726593E0,4.229728229E0
1.622589958E0,2.497107239E0,-1.646575928E0,-2.490221558E0,3.892038059E0
1.632602958E0,2.545007629E0,-1.838027802E0,-1.994901581E0,3.719548676E0
1.642614958E0,2.953059082E0,-2.409988403E0,-1.624871063E0,4.143526037E0
1.652626958E0,3.616629181E0,-3.276835785E0,-1.302142181E0,5.051062626E0
1.662639958E0,4.539460144E0,-4.424948273E0,-1.053808594E0,6.426303616E0
1.672651958E0,5.877228241E0,-5.963898010E0,-6.960525513E-1,8.402046205E0
1.682664958E0,7.639064484E0,-7.971373444E0,-5.763015747E-2,1.104089770E1
1.692676958E0,9.082662506E0,-9.853709106E0,9.394464111E-1,1.343402028E1
1.702688958E0,9.858499146E0,-1.087189178E1,2.075883179E0,1.482219037E1
1.712701958E0,9.969867554E0,-1.052985306E1,2.502645721E0,1.471527438E1
1.722713958E0,1.073462723E1,-1.011790970E1,2.305505676E0,1.493049479E1
1.732725958E0,1.266381546E1,-1.146675476E1,1.893861694E0,1.718852521E1
1.742738958E0,1.474134521E1,-1.385713394E1,1.057850189E0,2.025947844E1
1.752750958E0,1.588002731E1,-1.505479340E1,-3.459306335E-1,2.188473760E1
1.762762958E0,1.435215454E1,-1.548694473E1,-9.312135315E-1,2.113520655E1
1.772775958E0,1.210577591E1,-1.376806915E1,-1.510808258E0,1.839543639E1
1.782787958E0,1.026340714E1,-9.762548676E0,-1.512903900E0,1.424548212E1
1.792799958E0,8.957522736E0,-6.427783356E0,-6.459068298E-1,1.104403948E1
1.802812958E0,7.855364685E0,-4.298461304E0,-3.876937866E-2,8.954609259E0
1.812824958E0,6.752458191E0,-3.092419281E0,5.763015747E-2,7.427117197E0
1.822837958E0,5.592071228E0,-2.651735687E0,-3.293151855E-1,6.197694028E0
1.832849958E0,4.771627350E0,-2.702779541E0,-9.309141541E-1,5.562377727E0
1.842861958E0,4.449646912E0,-2.982996826E0,-1.449286194E0,5.549599821E0
1.852874958E0,4.548291779E0,-3.398981781E0,-1.846859436E0,5.970839558E0
1.862886958E0,4.781955872E0,-3.988905029E0,-2.043550415E0,6.553973115E0
1.872898958E0,5.158123627E0,-4.672832794E0,-1.964065704E0,7.231815800E0
1.882911958E0,5.781577148E0,-5.523663483E0,-1.719773712E0,8.178943343E0
1.892923958E0,6.520590363E0,-6.405180359E0,-1.273551636E0,9.228562612E0
1.902935958E0,7.135661316E0,-7.258705444E0,-5.020559692E-1,1.019110040E1
1.912948958E0,7.319329376E0,-7.980055389E0,5.373825073E-2,1.082851580E1
1.922960958E0,7.394024048E0,-8.494236145E0,1.152603149E-2,1.126160611E1
1.932973958E0,7.733817444E0,-8.719966736E0,-1.462458801E-1,1.165637765E1
1.942985958E0,8.094267883E0,-8.900790710E0,-3.945794678E-1,1.203731452E1
1.952997958E0,8.261170807E0,-9.044342194E0,-6.691085815E-1,1.226763119E1
1.963010958E0,8.170309753E0,-9.010961609E0,-9.177415466E-1,1.219809986E1
1.973022958E0,7.807164917E0,-8.766819305E0,-1.185235291E0,1.179888670E1
1.983034958E0,7.341034241E0,-8.356522522E0,-1.468296661E0,1.121954310E1
1.993047958E0,6.840475159E0,-7.784112854E0,-1.737736359E0,1.050734224E1
2.003059958E0,6.394851837E0,-7.082521820E0,-1.955234070E0,9.740594726E0
2.013071958E0,6.101461945E0,-6.523883514E0,-2.079924774E0,9.171421975E0
2.023084958E0,5.891598358E0,-6.135590973E0,-2.190694427E0,8.783823192E0
2.033096958E0,5.820945282E0,-5.926775208E0,-2.185754700E0,8.589970427E0
2.043109958E0,5.942642212E0,-5.994883575E0,-2.139351196E0,8.708068045E0
2.053126083E0,6.142326965E0,-6.236181793E0,-2.110012207E0,9.003904454E0
2.063138083E0,6.191275177E0,-6.417903900E0,-1.960772552E0,9.130498770E0
2.073151083E0,6.193670197E0,-6.461014252E0,-1.607207794E0,9.093369703E0
2.083163083E0,6.225254517E0,-6.414161682E0,-1.415606232E0,9.049817948E0
2.093175083E0,6.347849579E0,-6.359525299E0,-1.485510864E0,9.107441948E0
2.103188083E0,6.560557251E0,-6.315217438E0,-1.499132538E0,9.228774626E0
2.113200083E0,6.741231537E0,-6.293811951E0,-1.480870514E0,9.340730645E0
2.123212083E0,6.893464966E0,-6.325246582E0,-1.417402496E0,9.462432742E0
2.133225083E0,7.114555206E0,-6.455176392E0,-1.314416656E0,9.696075968E0
2.143237083E0,7.342531128E0,-6.650969238E0,-1.180295563E0,9.977036273E0
2.153250083E0,7.502099304E0,-6.812183990E0,-1.033450928E0,1.018603777E1
2.163262083E0,7.586823120E0,-6.871011658E0,-9.630972290E-1,1.028096506E1
2.173274083E0,7.530091095E0,-6.787335663E0,-8.629554749E-1,1.017422672E1
2.183287083E0,7.378456421E0,-6.572682037E0,-7.095245361E-1,9.906825596E0
2.193299083E0,7.142097931E0,-6.350693665E0,-6.505471802E-1,9.579357208E0
2.203311083E0,6.927444305E0,-6.218967590E0,-6.786886597E-1,9.334112748E0
2.213324083E0,6.840624847E0,-6.233487396E0,-7.134164429E-1,9.282212907E0
2.223336083E0,6.954687653E0,-6.329587555E0,-8.015830994E-1,9.437896716E0
2.233348083E0,7.109914856E0,-6.498137054E0,-9.499246216E-1,9.678792860E0
2.243361083E0,7.163952484E0,-6.598129120E0,-1.036744080E0,9.794506693E0
2.253373083E0,7.206763458E0,-6.603966980E0,-1.109792175E0,9.837756761E0
2.263386083E0,7.247329102E0,-6.573879547E0,-1.191522217E0,9.856946616E0
2.273398083E0,7.232509918E0,-6.501579895E0,-1.242416382E0,9.804251084E0
2.283410083E0,7.224576416E0,-6.470294952E0,-1.259331207E0,9.779833140E0
2.293423083E0,7.236701202E0,-6.484515381E0,-1.268611908E0,9.799395909E0
2.303435083E0,7.270530853E0,-6.528823242E0,-1.277144165E0,9.854808422E0
2.313447083E0,7.308402100E0,-6.577472076E0,-1.295406189E0,9.917356370E0
2.323460083E0,7.250322876E0,-6.579418030E0,-1.272204437E0,9.872913833E0
2.333472083E0,7.208410034E0,-6.576723633E0,-1.212478638E0,9.832831404E0
2.343484083E0,7.194189606E0,-6.557713165E0,-1.154100037E0,9.802648261E0
2.353497083E0,7.186106415E0,-6.505022736E0,-1.111289062E0,9.756557260E0
2.363509083E0,7.171885986E0,-6.465804291E0,-1.073866882E0,9.715748237E0
2.373521083E0,7.179520111E0,-6.483617249E0,-1.079255676E0,9.733837602E0
2.383534083E0,7.253316650E0,-6.587501221E0,-1.136885834E0,9.863989262E0
2.393546083E0,7.293732605E0,-6.635251923E0,-1.182989960E0,9.930990315E0
2.403559083E0,7.380851440E0,-6.606062622E0,-1.189576263E0,9.976578724E0
2.413571083E0,7.411687317E0,-6.562503204E0,-1.173709259E0,9.968808886E0
2.423583083E0,7.371271362E0,-6.563700714E0,-1.128952332E0,9.934401941E0
2.433596083E0,7.331753540E0,-6.621181183E0,-1.092727661E0,9.939250674E0
2.443608083E0,7.250173187E0,-6.666536865E0,-1.066981201E0,9.906875083E0
2.453620083E0,7.210954742E0,-6.706952820E0,-9.696835327E-1,9.895522754E0
2.463633083E0,7.090754700E0,-6.708150330E0,-1.000519409E0,9.812192525E0
2.473645083E0,6.958130493E0,-6.603817291E0,-1.153201904E0,9.662083492E0
2.483658083E0,7.224127350E0,-6.590794373E0,-1.105900269E0,9.841219530E0
2.493670083E0,7.432044983E0,-6.655759277E0,-1.061742096E0,1.003303147E1
2.503682083E0,7.437882843E0,-6.690337372E0,-1.075064392E0,1.006173339E1
2.513695083E0,7.399263153E0,-6.653663635E0,-1.029708710E0,1.000403094E1
2.523707083E0,7.395520935E0,-6.621480560E0,-9.512718201E-1,9.972093701E0
2.533719083E0,7.409591675E0,-6.572382660E0,-9.021739197E-1,9.945460291E0
2.543732083E0,7.344926147E0,-6.560706940E0,-8.202941895E-1,9.882494534E0
2.553744083E0,7.250771942E0,-6.601122894E0,-7.551795959E-1,9.834572357E0
2.563756083E0,7.289990387E0,-6.721173248E0,-7.258406067E-1,9.942080982E0
2.573769083E0,7.399861908E0,-6.824757843E0,-6.843768311E-1,1.008977936E1
2.583781083E0,7.397616577E0,-6.889722748E0,-6.541397095E-1,1.013019789E1
2.593793083E0,7.456593933E0,-6.933132477E0,-6.691085815E-1,1.020376525E1
2.603806083E0,7.508685608E0,-6.948849792E0,-7.017407227E-1,1.025472150E1
2.613818083E0,7.424710236E0,-6.872957611E0,-7.183561707E-1,1.014297313E1
2.623831083E0,7.292984161E0,-6.757397919E0,-6.822811890E-1,9.965718852E0
2.633843083E0,7.265890503E0,-6.711443481E0,-6.824308777E-1,9.914754173E0
2.643855083E0,7.257507935E0,-6.659950562E0,-5.406756592E-1,9.865023724E0
2.653868083E0,7.235803070E0,-6.605763245E0,-5.240602112E-1,9.811605028E0
2.663880083E0,7.232809296E0,-6.707401886E0,-5.887257385E-1,9.881769496E0
2.673892083E0,7.228019257E0,-6.882238312E0,-5.237608337E-1,9.994187909E0
2.683905083E0,7.240593109E0,-6.916666718E0,-4.848417664E-1,1.002504557E1
2.693917083E0,7.192692719E0,-6.861431580E0,-4.936734009E-1,9.952777768E0
2.703929083E0,7.123686218E0,-6.831493835E0,-4.297563171E-1,9.879316973E0
2.713942083E0,6.962321777E0,-6.918612671E0,-3.210823059E-1,9.820601798E0
2.723954083E0,6.766528931E0,-6.993157654E0,-2.484832764E-1,9.734059363E0
2.733967083E0,6.651567993E0,-6.995852051E0,-2.445913696E-1,9.656351672E0
2.743979083E0,6.610702972E0,-6.974596252E0,-2.918930054E-1,9.614134813E0
